Time(s),Filtered_Voltage
0.0071353912353515,0.012638950374025933
0.0229339599609375,0.013428143163514136
0.0380032062530517,0.014104279989620239
0.0537457466125488,0.01481853554818376
0.0690596103668212,0.015501562322225151
0.0848059654235839,0.015971493769814014
0.1002950668334961,0.016268200977015427
0.1159975528717041,0.016693838853457453
0.131699800491333,0.017444261629618443
0.1474010944366455,0.018329901747592955
0.1628377437591552,0.019001917898100518
0.1786305904388427,0.019398377705660476
0.194739818572998,0.019802141074961963
0.2107367515563964,0.02043360419416191
0.2262666225433349,0.02115086444190032
0.241398811340332,0.021685119769494412
0.2569770812988281,0.02208185075374189
0.2725288867950439,0.022695366960370923
0.2885844707489013,0.023688789390284612
0.3045966625213623,0.024727269535395762
0.3199682235717773,0.025355500085894607
0.3356444835662842,0.025607649995780274
0.3508477210998535,0.02600675183021525
0.3660268783569336,0.0268940152675211
0.3816535472869873,0.027965345231696945
0.3977532386779785,0.028661888236595844
0.4139661788940429,0.02891524803055064
0.4291508197784424,0.02924285979373028
0.4449734687805176,0.030053301931464074
0.4616055488586426,0.031101912728269766
0.476240873336792,0.03184514835402856
0.4922654628753662,0.03221122666913814
0.5081677436828613,0.03271528484734712
0.5238335132598877,0.033738541568631944
0.5392022132873535,0.03496247822225408
0.5546820163726807,0.035764436680541974
0.570171594619751,0.03605596643457797
0.5854918956756592,0.036409871962723536
0.6011598110198975,0.03728476547236288
0.6171329021453857,0.03840655702400493
0.6331334114074707,0.03916771395154828
0.648296594619751,0.039500294352515015
0.6638548374176025,0.03999592565266822
0.6793200969696045,0.04107043447711603
0.6941361427307129,0.042328455995601325
0.7096023559570312,0.04305837808002419
0.7255840301513672,0.04321996869636685
0.7410106658935547,0.04354868420933941
0.7569258213043213,0.044581693310254265
0.7733504772186279,0.04591855414589731
0.7885103225708008,0.04675324959982888
0.8036696910858154,0.046977271350527136
0.8196101188659668,0.047334988544046136
0.8353605270385742,0.04839042193080459
0.8503520488739014,0.049725697611641126
0.8657848834991455,0.05051672050728857
0.8814682960510254,0.050722655485567654
0.897261381149292,0.05120809232545481
0.912696361541748,0.05255034873662102
0.929004430770874,0.054157479697891524
0.9439811706542968,0.05498680464823115
0.9592039585113524,0.05495933014569869
0.9753117561340332,0.055125909200090056
0.9911737442016602,0.05629087293649873
1.006739616394043,0.057940009790748155
1.022216558456421,0.05895662458069733
1.0378680229187012,0.0591600164674981
1.0537421703338623,0.05953861692284946
1.0693752765655518,0.06083760472801993
1.084923267364502,0.062464944784871836
1.100419998168945,0.06328272444117383
1.1164219379425049,0.06322852962068493
1.131864309310913,0.0634811522337665
1.1479616165161133,0.06485008610794801
1.1631715297698977,0.06659313821401838
1.1787655353546145,0.06738180306449806
1.19388747215271,0.06716663323641749
1.2094221115112305,0.06733984791866432
1.2244818210601809,0.06886501703441739
1.2401816844940186,0.07090414394357904
1.256185531616211,0.07189673009286324
1.2714991569519043,0.07168660603639687
1.2872717380523682,0.0717657411647498
1.303264617919922,0.07323431441969017
1.3182787895202637,0.07526260934383977
1.334317684173584,0.07622483532410099
1.3503072261810305,0.07598377793640491
1.3650672435760498,0.07613143402574167
1.3810703754425049,0.07777142918913793
1.3963561058044434,0.07989981645626545
1.411834478378296,0.08072127024838455
1.4270422458648682,0.08017457366727238
1.4425828456878662,0.08013955976240275
1.4578566551208496,0.08190955568546422
1.4738357067108154,0.08436093424349436
1.489323377609253,0.08542637937776851
1.505012273788452,0.08493951721451512
1.5200154781341553,0.08491305422259249
1.5358829498291016,0.08676859826674943
1.5519051551818848,0.08930285258916433
1.567779779434204,0.09028411092588493
1.5832023620605469,0.08957258154085124
1.5992975234985352,0.08941321124281196
1.6146864891052246,0.09135098902354233
1.63034987449646,0.09398395532604756
1.6455821990966797,0.09479940853371528
1.6609251499176023,0.09371592878794589
1.676807880401611,0.09339919871202042
1.6917195320129397,0.09569527477263268
1.70800518989563,0.09895056928288733
1.7237226963043213,0.10001209462920772
1.7387261390686035,0.09840531149860648
1.7540810108184814,0.09709948775642836
1.7693469524383545,0.0987158848705661
1.7842156887054443,0.10205492456487081
1.7998971939086914,0.1033580985696855
1.815882682800293,0.10063158628756891
1.8316214084625244,0.09580202135539748
1.84761905670166,0.09255063347378598
1.8638713359832764,0.09266722485626172
1.879608154296875,0.09464038680543058
1.8954861164093015,0.09521809186037253
1.9112954139709477,0.09206145740046795
1.926562547683716,0.08534219799691968
1.9421863555908203,0.07723622520789869
1.9572193622589111,0.06978930857974977
1.9733238220214844,0.06310574707827055
1.9886350631713867,0.055874091059860014
2.0036869049072266,0.04779603833876897
2.019218921661377,0.040758557917934465
2.0352675914764404,0.03668264380784258
2.0511410236358643,0.03449208999243542
2.066617965698242,0.03055498446975545
2.081816911697388,0.02277839252968087
2.0975520610809326,0.01335207236458396
2.112710237503052,0.006340437846916822
2.1281559467315674,0.0029297104458644472
2.143458366394043,0.0003333140016260445
2.159364938735962,-0.004366081014339329
2.1753628253936768,-0.010503894971108107
2.191661834716797,-0.014886560024773038
2.206952810287476,-0.015911278117172092
2.222994327545166,-0.01531049782123817
2.2389931678771973,-0.015589920819096598
2.253515243530273,-0.01697806155967163
2.268911600112915,-0.017956410452403055
2.2845654487609863,-0.018174179848442867
2.2999844551086426,-0.01929926763261975
2.315518856048584,-0.022557922468366947
2.3309340476989746,-0.026603618653992855
2.346985101699829,-0.028948929007399034
2.363004446029663,-0.02917074334923496
2.3782341480255127,-0.029558548139376906
2.3942501544952397,-0.03226877159473189
2.4098634719848637,-0.03667047173117367
2.425473213195801,-0.04027214473265975
2.440459966659546,-0.041944313947713946
2.4558653831481934,-0.04325987643199203
2.4717109203338623,-0.04630797710026098
2.487786054611206,-0.05088532608314705
2.503105401992798,-0.05465602834937653
2.5186142921447754,-0.055963738683007
2.533825635910034,-0.05567051138486693
2.5499629974365234,-0.05588464607874237
2.565621852874756,-0.057501425684435614
2.58111310005188,-0.05967824679094814
2.5966451168060303,-0.061431289580880115
2.6125271320343018,-0.06280292203474744
2.628713130950928,-0.06412904782608153
2.644708633422852,-0.06486710821282671
2.6598541736602783,-0.06397440844848556
2.6748576164245605,-0.06147498609253341
2.691314458847046,-0.05906632950541793
2.706425905227661,-0.058757714915068225
2.7216572761535645,-0.060996493685386136
2.736984968185425,-0.0643612585170718
2.7530012130737305,-0.0670123613717883
2.768427610397339,-0.0681737545493416
2.7838902473449707,-0.06825601426394154
2.799665927886963,-0.06801375798434396
2.8148622512817383,-0.06792330592581361
2.830702066421509,-0.06816090935547078
2.846581220626831,-0.06871642104802958
2.8621976375579834,-0.0693265936200305
2.877723455429077,-0.06942050166728697
2.89301872253418,-0.06833279024095817
2.9089934825897217,-0.0657327489213732
2.9245076179504395,-0.061966866657655356
2.9403271675109863,-0.05804472365403147
2.956583023071289,-0.055247712037660365
2.971363067626953,-0.05457554866670175
2.98674750328064,-0.05631808135894172
3.001892328262329,-0.059935887911533245
3.0174851417541504,-0.0642546401376703
3.032675743103028,-0.06790673683217177
3.048518419265747,-0.06992962312987755
3.063839673995972,-0.07021710351341665
3.079190492630005,-0.06938976738106606
3.0949947834014893,-0.06814480428476238
3.110285997390747,-0.06681544010527381
3.1263394355773926,-0.06560527554222888
3.142371416091919,-0.06497001692132898
3.157839775085449,-0.06539707683560922
3.1733548641204834,-0.06676307728263645
3.1885125637054443,-0.06815394658507067
3.204134225845337,-0.06853213889570677
3.219835042953491,-0.06763386029439919
3.235125541687012,-0.06620558563306735
3.251365900039673,-0.06539431716429504
3.267456531524658,-0.06591950022551712
3.2826790809631348,-0.06772033044239799
3.298500061035156,-0.070193206318899
3.3131766319274902,-0.07261418764143612
3.3288514614105225,-0.0743575526545707
3.3448245525360107,-0.0749256025613953
3.360037088394165,-0.0740333870383173
3.37610936164856,-0.07180487139795322
3.391255140304565,-0.06888625478899688
3.406733512878418,-0.06630310725096931
3.422787666320801,-0.06507265345342318
3.438380718231201,-0.06570895442519135
3.454000949859619,-0.06788030350417648
3.4697489738464355,-0.07054924031396254
3.485297441482544,-0.0725452670821839
3.5011932849884038,-0.07298001649313345
3.516691207885742,-0.07127361494921344
3.5321297645568848,-0.0674362483343971
3.547672748565674,-0.06287386485848599
3.5631988048553467,-0.06056531141614199
3.5791895389556885,-0.06340778332622925
3.5950734615325928,-0.07159572025150003
3.610230684280396,-0.08162141668140492
3.626067876815796,-0.08838172282116932
3.641757249832153,-0.08887161489294997
3.657622814178467,-0.08434460282655495
3.673114776611328,-0.07923129631560316
3.68854022026062,-0.07792271589377453
3.703716278076172,-0.08211826993431036
3.7194690704345694,-0.09058718158737164
3.73464298248291,-0.10092644236942566
3.750373363494873,-0.11150888465302626
3.76570725440979,-0.1222856964981254
3.781588315963745,-0.13422647512157349
3.797667980194092,-0.1478818859538073
3.81305193901062,-0.16212258680021652
3.828718423843384,-0.17433373085162893
3.844868659973145,-0.18224383858984589
3.860842227935791,-0.18578792672166036
3.876463413238525,-0.187137165795465
3.892155170440674,-0.18881788192872026
3.907802820205689,-0.19177198788113542
3.923186779022217,-0.19521516204481
3.938398838043213,-0.19807341817116847
3.954478025436402,-0.19994102359213842
3.9696567058563232,-0.2003968711999801
3.984462738037109,-0.19801808404139143
3.999719858169556,-0.19098903458397878
4.015433549880981,-0.1791332588020882
4.03111457824707,-0.16525537379304078
4.045930862426758,-0.15399575123375125
4.061944484710693,-0.1486689985713708
4.077761650085449,-0.14879072565719864
4.0935258865356445,-0.15071917453047173
4.108742713928223,-0.15078373753054786
4.1243977546691895,-0.1477494371113135
4.140003442764282,-0.14253689022024302
4.155858755111694,-0.13634050524321467
4.17132568359375,-0.12963119306441886
4.186996221542358,-0.1227247472019012
4.202491998672485,-0.11642630614913745
4.218402147293091,-0.11147172680507128
4.233559846878052,-0.10737017923943121
4.249143838882446,-0.10224880462356165
4.264415264129639,-0.09435123826681269
4.279711484909058,-0.08404145492694964
4.295012474060059,-0.07435174370312812
4.31037449836731,-0.06919830022808116
4.325834035873413,-0.07034887219566514
4.341009378433228,-0.07530258394635644
4.357039213180542,-0.07792855397435147
4.3732123374938965,-0.0722892192664095
4.3880696296691895,-0.05756211368270362
4.404078960418701,-0.0398245010742093
4.418874025344849,-0.027939996408773475
4.434476852416992,-0.026220093972902495
4.449303865432739,-0.030547383970085645
4.4641828536987305,-0.03189318002559652
4.479883670806885,-0.02388395799065212
4.4959094524383545,-0.007359465377838769
4.511861801147461,0.01141475801997649
4.527217388153076,0.026062671591189947
4.542838096618652,0.034096075545242965
4.558525800704956,0.03731681623156134
4.573504686355591,0.03963457867547632
4.589597702026367,0.04452988385751255
4.6051106452941895,0.05352523030462526
4.620436191558838,0.06568459732951051
4.63569974899292,0.0778549571922893
4.6516432762146,0.08595740848039227
4.667179107666016,0.08743309897046114
4.682958126068115,0.08333563907000288
4.698490619659424,0.07786871956724958
4.713800668716431,0.07539228702258406
4.728951692581177,0.07758532737330334
4.744123458862305,0.08294530842904987
4.760212659835815,0.08829504224745495
4.77589750289917,0.09089388861665665
4.791368246078491,0.09010741329941871
4.806978464126587,0.08774835366970676
4.822324752807617,0.0866578780760183
4.838050365447998,0.08849161859850017
4.854122877120972,0.09265449931195803
4.869257211685181,0.097411701552581
4.88536262512207,0.10190486103111196
4.90160870552063,0.10663246187737688
4.917672634124756,0.1117960056545901
4.933359146118164,0.1157935212595826
4.948595762252808,0.11610492413311298
4.96379017829895,0.111727050505353
4.979102849960327,0.10432109090040165
4.994198083877564,0.09681804491077096
5.010242223739624,0.09112634234453251
5.0254967212677,0.08725653341935347
5.041188478469849,0.08424000226729894
5.0568695068359375,0.08142382450279409
5.072968006134033,0.07900955148385994
5.088250875473023,0.07789981794318682
5.103723764419556,0.0791982516595714
5.1187379360198975,0.08339455660719546
5.134159326553345,0.08957564679323622
5.149761199951172,0.0955458268778363
5.164907693862915,0.09918448442779398
5.180681467056274,0.09995137498557144
5.196939945220947,0.09900290314945585
5.212027549743652,0.09774796782525592
5.22691535949707,0.09633970715892058
5.242955684661865,0.0936062938915024
5.2582597732543945,0.08836732098841633
5.273624658584595,0.08081471380887734
5.288794994354248,0.07279825233599242
5.304438829421997,0.0668407230855701
5.319777965545654,0.06453626378251318
5.335884094238281,0.06537118652720139
5.351024866104126,0.06687680107338491
5.366797685623169,0.06624109764642908
5.382783889770508,0.06237399684713713
5.398455858230591,0.05680997790743531
5.413970708847046,0.05252390030689143
5.429745197296143,0.05146497538275978
5.445573568344116,0.05288428252161639
5.461571931838989,0.053949851629391185
5.476902961730957,0.052077429669143666
5.492150783538818,0.04688853365185651
5.508229970932007,0.04027098460989183
5.523456811904907,0.034863692111599995
5.538958787918091,0.03238174251663431
5.55390477180481,0.03286824498048517
5.5694732666015625,0.03509687204939867
5.584588050842285,0.037586076879619096
5.599907636642456,0.039285088238348864
5.615417718887329,0.03950258588475211
5.6306891441345215,0.03772085830540477
5.646564722061157,0.03402659368617426
5.661635637283325,0.029673551275980196
5.676650524139404,0.026616261560952557
5.691771507263184,0.025989823082173572
5.707876443862915,0.0270414722118816
5.723340034484863,0.02776968391608077
5.73843789100647,0.026670026958958308
5.7544310092926025,0.02383946910448349
5.770403146743774,0.020582120245134596
5.786100387573242,0.01831630645626272
5.801881790161133,0.017973815155311587
5.817999362945557,0.019990652783195534
5.833514213562012,0.02416060694303209
5.8488850593566895,0.029287921005569557
5.86470103263855,0.03350655159997967
5.880716562271118,0.03550169840782963
5.896684169769287,0.035444559713291086
5.912206411361694,0.0345367772383124
5.927366256713867,0.033678505779131535
5.942979574203491,0.03275000982963429
5.958144903182983,0.03121958303194629
5.973581314086914,0.029214367314998307
5.989618301391602,0.027587519510680805
6.0055320262908936,0.026791927088435894
6.02115535736084,0.026107535375181484
6.037050247192383,0.02449838466709475
6.0521979331970215,0.022166532578612536
6.067624807357788,0.020721835515538117
6.082740783691406,0.021534555112627793
6.098290920257568,0.02415291851882824
6.1138434410095215,0.026638869862034623
6.12925910949707,0.02743840033834642
6.144669055938721,0.02673646741198453
6.160695552825928,0.02595000143366926
6.176132678985596,0.026085339801350176
6.192206144332886,0.026800391588381618
6.207536935806274,0.027073890966207385
6.223321199417114,0.026558561265598284
6.239307165145874,0.02602648481825644
6.254479885101318,0.026498772146797352
6.27004599571228,0.028206938438454034
6.2856810092926025,0.03049229203059364
6.30114221572876,0.03234322745045265
6.316685438156128,0.03268968468062354
6.332772731781006,0.030540693409526712
6.347838640213013,0.02566186454046481
6.363342761993408,0.019475638617202577
6.37881875038147,0.01484151274859296
6.394122362136841,0.014244561647252551
6.410138845443726,0.01777897633702144
6.42529559135437,0.022788084503800023
6.4405198097229,0.025594726422245598
6.45555567741394,0.024013594487121766
6.470875024795532,0.018771258619162578
6.486561298370361,0.012840769159649993
6.502100229263306,0.009300768736075809
6.517517805099487,0.00938669343403931
6.533074855804443,0.01206459027050193
6.5483129024505615,0.015156475926354189
6.563657283782959,0.01699017201232132
6.57962441444397,0.017401971780728366
6.595407009124756,0.017440783936891587
6.610570669174194,0.01801311056668895
6.626428842544556,0.018712617147747076
6.642193555831909,0.018191612836069685
6.657506942749023,0.015895851912029524
6.673532485961914,0.013211344311415588
6.689911127090454,0.012475177650540993
6.705391883850098,0.014765472940071115
6.720469951629639,0.01887105805882476
6.736735820770264,0.022418181266286884
6.752046585083008,0.023721335212644953
6.767397880554199,0.022553091793695648
6.783061265945435,0.019669756691563536
6.79838490486145,0.016125659219698385
6.814160585403442,0.012985127181286074
6.829305410385132,0.011112022965374824
6.844679594039917,0.010651110562350786
6.859946012496948,0.010627643066986152
6.875354290008545,0.009540428077149415
6.8919970989227295,0.006874917703656273
6.907073259353638,0.00399379910413675
6.922533512115479,0.0030574637589240927
6.938320159912109,0.004827719507144185
6.95351767539978,0.007770918205260099
6.969412326812744,0.009560573239318202
6.9845380783081055,0.009332677873706601
7.000420331954956,0.008231074235910425
7.015548229217529,0.007797138960738785
7.030809640884399,0.00812494439875406
7.04594087600708,0.00779580477092732
7.06114387512207,0.005538636412063518
7.077117204666138,0.001736757281941754
7.093165159225464,-0.0017590523051861614
7.108881711959839,-0.0031395325859065676
7.12487530708313,-0.001853549692652003
7.140074491500855,0.0014395450303221094
7.156160593032837,0.005673379969652942
7.171471118927002,0.009891956120268445
7.1874659061431885,0.013234669489410017
7.202279567718506,0.014988023104616974
7.218275308609009,0.015003549622857023
7.233686685562134,0.013888574004647035
7.248857259750366,0.012444873185744292
7.264849901199341,0.010958566470427013
7.280970335006714,0.009307160154127189
7.297063827514648,0.007628290363714402
7.312661647796631,0.006395250162454255
7.3281333446502686,0.005709433003402783
7.344141483306885,0.0049458064243670585
7.358921051025391,0.0035173090881013263
7.374280214309692,0.0019455033410117374
7.389447450637817,0.0017702457609006152
7.404812335968018,0.004096888709274609
7.420540332794189,0.008364549329650584
7.435787677764893,0.01287048346159297
7.451001882553101,0.01646636345785503
7.466922044754028,0.019376003376171992
7.482518911361694,0.022377658609183823
7.498539686203003,0.025857217929744693
7.513890027999878,0.030195298855027797
7.529356956481934,0.03666467450565053
7.545188903808594,0.04685862861131665
7.561037302017212,0.06053574529034538
7.576219797134399,0.07436274176917357
7.591964960098267,0.08368022477217275
7.607882976531982,0.08591494295970144
7.623009443283081,0.08199112044596323
7.638162851333618,0.07446677149674037
7.6536760330200195,0.06511550338479868
7.669348478317261,0.05474299912242134
7.685152292251587,0.04446429111868776
7.700361728668213,0.03587935355618087
7.716237545013428,0.029665781343611065
7.731613159179687,0.024559828558700203
7.74675440788269,0.018277413360015524
7.761783599853516,0.009527362587464738
7.777632713317871,-0.0010349587834793568
7.793036222457886,-0.011767349832667359
7.80877161026001,-0.02154644831417995
7.824426174163818,-0.030116883740871847
7.8394246101379395,-0.0374130593719633
7.85494327545166,-0.043280037507193184
7.870661735534668,-0.04799855493825021
7.886030673980713,-0.052463046471685065
7.902025461196899,-0.0572966436030351
7.918031930923462,-0.061942633952356635
7.934082984924316,-0.0650619820547231
7.95002555847168,-0.06582578912703113
7.965577363967895,-0.06443302824452413
7.981389284133911,-0.06124194035554709
7.997068405151367,-0.0558257592635724
